X-ray (ID 01) / Crystal angle ?_c	X-ray (ID 01) / Impulse Imp
?_c/°	Imp/# / s

5.0	3953
5.1	4434
5.2	3848
5.3	3364
5.4	2973
5.5	2545
5.6	2123
5.7	1841
5.8	1522
5.9	1349
6.0	1153
6.1	940
6.2	748
6.3	637
6.4	555
6.5	467
6.6	380
6.7	352
6.8	321
6.9	253
7.0	255
7.1	223
7.2	196
7.3	217
7.4	194
7.5	215
7.6	204
7.7	213
7.8	207
7.9	181
8.0	203
8.1	204
8.2	181
8.3	193
8.4	199
8.5	179
8.6	202
8.7	184
8.8	194
8.9	178
9.0	187
9.1	202
9.2	194
9.3	193
9.4	196
9.5	181
9.6	194
9.7	199
9.8	204
9.9	203
10.0	199
10.1	204
10.2	201
10.3	217
10.4	219
10.5	198
10.6	194
10.7	217
10.8	207
10.9	202
11.0	191
11.1	201
11.2	213
11.3	204
11.4	192
11.5	206
11.6	184
11.7	203
11.8	184
11.9	186
12.0	172
12.1	171
12.2	152
12.3	139
12.4	150
12.5	149
12.6	140
12.7	146
12.8	148
12.9	147
13.0	138
13.1	130
13.2	136
13.3	124
13.4	118
13.5	116
13.6	111
13.7	109
13.8	108
13.9	109
14.0	114
14.1	99
14.2	123
14.3	116
14.4	81
14.5	107
14.6	97
14.7	98
14.8	96
14.9	84
15.0	87
15.1	95
15.2	90
15.3	76
15.4	81
15.5	94
15.6	80
15.7	82
15.8	88
15.9	97
16.0	76
16.1	78
16.2	86
16.3	81
16.4	99
16.5	112
16.6	273
16.7	970
16.8	973
16.9	248
17.0	149
17.1	110
17.2	96
17.3	105
17.4	100
17.5	100
17.6	101
17.7	120
17.8	132
17.9	158
18.0	232
18.1	414
18.2	1392
18.3	3555
18.4	2773
18.5	527
18.6	172
18.7	93
18.8	77
18.9	67
19.0	54
19.1	56
19.2	63
19.3	60
19.4	61
19.5	50
19.6	57
19.7	53
19.8	56
19.9	55
20.0	39
20.1	50
20.2	47
20.3	45
20.4	47
20.5	45
20.6	40
20.7	55
20.8	47
20.9	43
21.0	43
21.1	42
21.2	29
21.3	26
21.4	30
21.5	40
21.6	33
21.7	31
21.8	33
21.9	37
22.0	35
22.1	28
22.2	29
22.3	34
22.4	30
22.5	23
22.6	27
22.7	33
22.8	24
22.9	29
23.0	20
23.1	27
23.2	28
23.3	21
23.4	25
23.5	27
23.6	20
23.7	24
23.8	24
23.9	17
24.0	32
24.1	17
24.2	30
24.3	23
24.4	17
24.5	16
24.6	21
24.7	18
24.8	16
24.9	19
25.0	20
25.1	22
25.2	22
25.3	24
25.4	19
25.5	18
25.6	18
25.7	22
25.8	16
25.9	18
26.0	18
26.1	14
26.2	18
26.3	16
26.4	13
26.5	16
26.6	17
26.7	15
26.8	14
26.9	18
27.0	20
27.1	19
27.2	21
27.3	14
27.4	19
27.5	17
27.6	14
27.7	12
27.8	16
27.9	16
28.0	9
28.1	14
28.2	16
28.3	11
28.4	12
28.5	8
28.6	14
28.7	10
28.8	15
28.9	12
29.0	15
29.1	9
29.2	14
29.3	17
29.4	14
29.5	12
29.6	16
29.7	15
29.8	17
29.9	16
30.0	13
30.1	14
30.2	11
30.3	11
30.4	11
30.5	11
30.6	14
30.7	13
30.8	9
30.9	12
31.0	8
31.1	12
31.2	12
31.3	12
31.4	15
31.5	14
31.6	13
31.7	14
31.8	18
31.9	41
32.0	142
32.1	117
32.2	31
32.3	20
32.4	18
32.5	19
32.6	14
32.7	10
32.8	11
32.9	13
33.0	12
33.1	16
33.2	8
33.3	15
33.4	14
33.5	9
33.6	16
33.7	10
33.8	9
33.9	8
34.0	11
34.1	13
34.2	14
34.3	10
34.4	10
34.5	14
34.6	12
34.7	15
34.8	16
34.9	14
35.0	14
35.1	22
35.2	18
35.3	35
35.4	87
35.5	394
35.6	569
35.7	261
35.8	38
35.9	18
36.0	14
36.1	15
36.2	13
36.3	15
36.4	9
36.5	10
36.6	12
36.7	11
36.8	10
36.9	10
37.0	8
37.1	8
37.2	12
37.3	9
37.4	9
37.5	7
37.6	11
37.7	8
37.8	10
37.9	9
38.0	9
38.1	6
38.2	7
38.3	7
38.4	6
38.5	6
38.6	6
38.7	9
38.8	5
38.9	5
39.0	10
39.1	9
39.2	8
39.3	10
39.4	9
39.5	7
39.6	7
39.7	5
39.8	5
39.9	5
40.0	8
40.1	8
40.2	4
40.3	6
40.4	7
40.5	7
40.6	6
40.7	5
40.8	5
40.9	6
41.0	6
41.1	5
41.2	6
41.3	11
41.4	5
41.5	8
41.6	7
41.7	6
41.8	9
41.9	6
42.0	8
42.1	8
42.2	5
42.3	7
42.4	8
42.5	7
42.6	3
42.7	5
42.8	6
42.9	5
43.0	8
43.1	7
43.2	7
43.3	10
43.4	4
43.5	6
43.6	3
43.7	1
43.8	4
43.9	7
44.0	7
44.1	6
44.2	7
44.3	6
44.4	6
44.5	8
44.6	7
44.7	2
44.8	8
44.9	6
45.0	7
45.1	8
45.2	6
45.3	3
45.4	2
45.5	5
45.6	5
45.7	7
45.8	5
45.9	6
46.0	3
46.1	4
46.2	7
46.3	4
46.4	4
46.5	3
46.6	8
46.7	5
46.8	6
46.9	4
47.0	5
47.1	3
47.2	7
47.3	5
47.4	5
47.5	3
47.6	6
47.7	5
47.8	6
47.9	6
48.0	9
48.1	6
48.2	5
48.3	5
48.4	8
48.5	3
48.6	5
48.7	6
48.8	5
48.9	6
49.0	5
49.1	5
49.2	6
49.3	5
49.4	6
49.5	10
49.6	3
49.7	4
49.8	5
49.9	4
50.0	8
50.1	22
50.2	37
50.3	10
50.4	6
50.5	8
50.6	3
50.7	5
50.8	7
50.9	5
51.0	9
51.1	4
51.2	3
51.3	6
51.4	6
51.5	3
51.6	8
51.7	4
51.8	5
51.9	4
52.0	5
52.1	3
52.2	7
52.3	5
52.4	4
52.5	5
52.6	7
52.7	4
52.8	4
52.9	4
53.0	6
53.1	7
53.2	5
53.3	3
53.4	6
53.5	5
53.6	5
53.7	6
53.8	7
53.9	5
54.0	3
54.1	3
54.2	9
54.3	4
54.4	4
54.5	9
54.6	4
54.7	4
54.8	7
54.9	7
55.0	7
55.1	9
55.2	7
55.3	4
55.4	6
55.5	5
55.6	6
55.7	6
55.8	5
55.9	7
56.0	8
56.1	5
56.2	8
56.3	7
56.4	5
56.5	6
56.6	6
56.7	7
56.8	7
56.9	11
57.0	9
57.1	10
57.2	19
57.3	44
57.4	82
57.5	61
57.6	51
57.7	28
57.8	9
57.9	8
58.0	7
58.1	7
58.2	11
58.3	7
58.4	6
58.5	9
58.6	2
58.7	4
58.8	8
58.9	8
59.0	7
59.1	6
59.2	5
59.3	7
59.4	6
59.5	4
59.6	6
59.7	7
59.8	8
59.9	5
60.0	6
