X-ray (ID 01) / Crystal angle ?_c	X-ray (ID 01) / Impulse Imp
?_c/°	Imp/# / s

5.0	152
5.1	155
5.2	166
5.3	170
5.4	175
5.5	173
5.6	186
5.7	176
5.8	179
5.9	189
6.0	184
6.1	166
6.2	186
6.3	174
6.4	188
6.5	185
6.6	194
6.7	188
6.8	184
6.9	195
7.0	204
7.1	185
7.2	175
7.3	171
7.4	156
7.5	150
7.6	148
7.7	147
7.8	144
7.9	135
8.0	132
8.1	144
8.2	147
8.3	136
8.4	141
8.5	130
8.6	141
8.7	128
8.8	135
8.9	127
9.0	128
9.1	121
9.2	123
9.3	122
9.4	113
9.5	112
9.6	111
9.7	116
9.8	109
9.9	96
10.0	106
10.1	105
10.2	99
10.3	106
10.4	97
10.5	99
10.6	97
10.7	96
10.8	85
10.9	95
11.0	92
11.1	85
11.2	82
11.3	83
11.4	70
11.5	86
11.6	85
11.7	101
11.8	164
11.9	552
12.0	1266
12.1	746
12.2	221
12.3	146
12.4	131
12.5	112
12.6	105
12.7	92
12.8	99
12.9	105
13.0	96
13.1	112
13.2	151
13.3	256
13.4	619
13.5	2861
13.6	4241
13.7	1721
13.8	453
13.9	217
14.0	152
14.1	102
14.2	81
14.3	77
14.4	70
14.5	64
14.6	69
14.7	60
14.8	63
14.9	53
15.0	58
15.1	61
15.2	61
15.3	47
15.4	47
15.5	57
15.6	50
15.7	42
15.8	53
15.9	51
16.0	48
16.1	43
16.2	50
16.3	49
16.4	43
16.5	46
16.6	40
16.7	39
16.8	40
16.9	36
17.0	35
17.1	38
17.2	31
17.3	33
17.4	31
17.5	32
17.6	35
17.7	33
17.8	36
17.9	28
18.0	32
18.1	28
18.2	34
18.3	27
18.4	24
18.5	24
18.6	29
18.7	26
18.8	28
18.9	25
19.0	24
19.1	25
19.2	27
19.3	23
19.4	22
19.5	21
19.6	20
19.7	24
19.8	24
19.9	25
20.0	20
20.1	22
20.2	21
20.3	20
20.4	19
20.5	22
20.6	18
20.7	21
20.8	17
20.9	20
21.0	21
21.1	21
21.2	21
21.3	23
21.4	20
21.5	20
21.6	22
21.7	18
21.8	17
21.9	17
22.0	15
22.1	16
22.2	21
22.3	18
22.4	19
22.5	17
22.6	15
22.7	18
22.8	17
22.9	19
23.0	14
23.1	14
23.2	19
23.3	17
23.4	12
23.5	16
23.6	14
23.7	15
23.8	15
23.9	14
24.0	17
24.1	16
24.2	13
24.3	11
24.4	14
24.5	14
24.6	15
24.7	15
24.8	16
24.9	15
25.0	15
25.1	14
25.2	13
25.3	14
25.4	15
25.5	14
25.6	13
25.7	13
25.8	11
25.9	12
26.0	14
26.1	13
26.2	12
26.3	13
26.4	9
26.5	14
26.6	13
26.7	15
26.8	14
26.9	17
27.0	23
27.1	29
27.2	119
27.3	216
27.4	96
27.5	29
27.6	21
27.7	18
27.8	17
27.9	18
28.0	16
28.1	13
28.2	12
28.3	14
28.4	13
28.5	14
28.6	11
28.7	14
28.8	12
28.9	15
29.0	14
29.1	11
29.2	9
29.3	13
29.4	14
29.5	10
29.6	10
29.7	12
29.8	15
29.9	15
30.0	17
30.1	19
30.2	15
30.3	18
30.4	21
30.5	30
30.6	51
30.7	248
30.8	753
30.9	676
31.0	237
31.1	42
31.2	26
31.3	17
31.4	16
31.5	16
31.6	14
31.7	15
31.8	10
31.9	13
32.0	11
32.1	12
32.2	10
32.3	8
32.4	10
32.5	11
32.6	11
32.7	10
32.8	9
32.9	11
33.0	9
33.1	10
33.2	8
33.3	9
33.4	9
33.5	11
33.6	11
33.7	9
33.8	10
33.9	7
34.0	7
34.1	7
34.2	7
34.3	7
34.4	7
34.5	8
34.6	8
34.7	8
34.8	9
34.9	8
35.0	7
35.1	8
35.2	9
35.3	8
35.4	6
35.5	9
35.6	7
35.7	6
35.8	9
35.9	5
36.0	6
36.1	8
36.2	7
36.3	4
36.4	7
36.5	8
36.6	9
36.7	6
36.8	10
36.9	5
37.0	7
37.1	8
37.2	7
37.3	7
37.4	6
37.5	7
37.6	6
37.7	8
37.8	7
37.9	5
38.0	6
38.1	6
38.2	7
38.3	6
38.4	7
38.5	5
38.6	8
38.7	8
38.8	4
38.9	6
39.0	6
39.1	6
39.2	4
39.3	4
39.4	5
39.5	6
39.6	6
39.7	6
39.8	5
39.9	6
40.0	4
40.1	6
40.2	5
40.3	6
40.4	6
40.5	6
40.6	5
40.7	4
40.8	5
40.9	5
41.0	4
41.1	4
41.2	6
41.3	7
41.4	5
41.5	6
41.6	6
41.7	4
41.8	6
41.9	6
42.0	4
42.1	3
42.2	6
42.3	8
42.4	5
42.5	4
42.6	4
42.7	5
42.8	5
42.9	5
43.0	5
43.1	5
43.2	4
43.3	5
43.4	6
43.5	6
43.6	4
43.7	6
43.8	4
43.9	6
44.0	5
44.1	4
44.2	7
44.3	6
44.4	5
44.5	4
44.6	5
44.7	4
44.8	6
44.9	7
45.0	6
45.1	5
45.2	7
45.3	17
45.4	47
45.5	42
45.6	11
45.7	9
45.8	6
45.9	6
46.0	4
46.1	6
46.2	5
46.3	7
46.4	4
46.5	6
46.6	6
46.7	7
46.8	7
46.9	6
47.0	5
47.1	6
47.2	8
47.3	6
47.4	4
47.5	6
47.6	6
47.7	4
47.8	7
47.9	6
48.0	5
48.1	4
48.2	4
48.3	4
48.4	5
48.5	4
48.6	5
48.7	5
48.8	6
48.9	3
49.0	6
49.1	4
49.2	3
49.3	4
49.4	4
49.5	4
49.6	5
49.7	5
49.8	4
49.9	4
50.0	6
50.1	5
50.2	6
50.3	5
50.4	4
50.5	5
50.6	7
50.7	5
50.8	6
50.9	8
51.0	7
51.1	6
51.2	6
51.3	5
51.4	7
51.5	8
51.6	5
51.7	6
51.8	8
51.9	6
52.0	8
52.1	7
52.2	12
52.3	11
52.4	17
52.5	33
52.6	145
52.7	206
52.8	110
52.9	106
53.0	39
53.1	11
53.2	11
53.3	9
53.4	8
53.5	9
53.6	8
53.7	10
53.8	7
53.9	9
54.0	7
54.1	7
54.2	6
54.3	4
54.4	6
54.5	5
54.6	7
54.7	7
54.8	8
54.9	7
55.0	6
55.1	6
55.2	5
55.3	5
55.4	7
55.5	4
55.6	6
55.7	5
55.8	5
55.9	7
56.0	6
56.1	4
56.2	6
56.3	5
56.4	6
56.5	5
56.6	5
56.7	7
56.8	6
56.9	8
57.0	4
57.1	7
57.2	6
57.3	5
57.4	5
57.5	6
57.6	4
57.7	5
57.8	4
57.9	4
58.0	5
58.1	5
58.2	6
58.3	7
58.4	5
58.5	5
58.6	4
58.7	6
58.8	4
58.9	7
59.0	4
59.1	5
59.2	6
59.3	5
59.4	8
59.5	5
59.6	5
59.7	7
59.8	5
59.9	5
60.0	4
