X-ray (ID 01) / Crystal angle ?_c	X-ray (ID 01) / Impulse Imp
?_c/°	Imp/# / s

5.0	33
5.1	29
5.2	28
5.3	31
5.4	31
5.5	32
5.6	32
5.7	34
5.8	31
5.9	32
6.0	28
6.1	29
6.2	29
6.3	31
6.4	30
6.5	28
6.6	29
6.7	32
6.8	37
6.9	32
7.0	42
7.1	38
7.2	36
7.3	35
7.4	34
7.5	36
7.6	37
7.7	34
7.8	36
7.9	36
8.0	40
8.1	43
8.2	38
8.3	43
8.4	40
8.5	41
8.6	43
8.7	44
8.8	41
8.9	34
9.0	37
9.1	33
9.2	39
9.3	36
9.4	34
9.5	30
9.6	36
9.7	36
9.8	30
9.9	29
10.0	30
10.1	28
10.2	29
10.3	29
10.4	27
10.5	25
10.6	28
10.7	29
10.8	32
10.9	33
11.0	27
11.1	25
11.2	24
11.3	27
11.4	27
11.5	21
11.6	23
11.7	23
11.8	22
11.9	21
12.0	23
12.1	29
12.2	26
12.3	25
12.4	22
12.5	25
12.6	21
12.7	23
12.8	23
12.9	22
13.0	23
13.1	24
13.2	25
13.3	27
13.4	22
13.5	25
13.6	25
13.7	21
13.8	24
13.9	26
14.0	22
14.1	23
14.2	19
14.3	18
14.4	20
14.5	20
14.6	18
14.7	17
14.8	16
14.9	16
15.0	22
15.1	20
15.2	17
15.3	21
15.4	18
15.5	15
15.6	20
15.7	17
15.8	21
15.9	18
16.0	17
16.1	20
16.2	18
16.3	18
16.4	17
16.5	17
16.6	20
16.7	20
16.8	16
16.9	17
17.0	18
17.1	21
17.2	21
17.3	34
17.4	43
17.5	47
17.6	63
17.7	57
17.8	51
17.9	55
18.0	56
18.1	57
18.2	61
18.3	64
18.4	56
18.5	53
18.6	40
18.7	34
18.8	25
18.9	21
19.0	25
19.1	17
19.2	21
19.3	19
19.4	27
19.5	92
19.6	151
19.7	184
19.8	219
19.9	196
20.0	202
20.1	189
20.2	188
20.3	180
20.4	205
20.5	212
20.6	204
20.7	188
20.8	168
20.9	127
21.0	74
21.1	35
21.2	17
21.3	20
21.4	16
21.5	17
21.6	13
21.7	15
21.8	16
21.9	14
22.0	13
22.1	12
22.2	13
22.3	13
22.4	13
22.5	12
22.6	14
22.7	10
22.8	10
22.9	13
23.0	11
23.1	11
23.2	12
23.3	11
23.4	11
23.5	9
23.6	13
23.7	12
23.8	11
23.9	12
24.0	12
24.1	12
24.2	12
24.3	11
24.4	10
24.5	12
24.6	9
24.7	8
24.8	10
24.9	12
25.0	10
25.1	9
25.2	9
25.3	8
25.4	9
25.5	9
25.6	13
25.7	11
25.8	10
25.9	12
26.0	11
26.1	9
26.2	10
26.3	9
26.4	9
26.5	9
26.6	8
26.7	8
26.8	8
26.9	8
27.0	9
27.1	11
27.2	9
27.3	9
27.4	10
27.5	6
27.6	7
27.7	8
27.8	9
27.9	7
28.0	9
28.1	9
28.2	8
28.3	6
28.4	8
28.5	9
28.6	8
28.7	8
28.8	8
28.9	7
29.0	8
29.1	5
29.2	9
29.3	10
29.4	6
29.5	7
29.6	7
29.7	8
29.8	9
29.9	8
30.0	7
30.1	9
30.2	10
30.3	7
30.4	7
30.5	10
30.6	7
30.7	7
30.8	7
30.9	8
31.0	7
31.1	9
31.2	8
31.3	8
31.4	10
31.5	6
31.6	7
31.7	8
31.8	7
31.9	8
32.0	8
32.1	5
32.2	10
32.3	5
32.4	6
32.5	5
32.6	5
32.7	6
32.8	6
32.9	8
33.0	6
33.1	6
33.2	7
33.3	8
33.4	6
33.5	6
33.6	8
33.7	6
33.8	6
33.9	6
34.0	6
34.1	8
34.2	7
34.3	7
34.4	6
34.5	6
34.6	6
34.7	6
34.8	7
34.9	6
35.0	5
35.1	8
35.2	5
35.3	9
35.4	7
35.5	6
35.6	7
35.7	4
35.8	5
35.9	4
36.0	7
36.1	6
36.2	4
36.3	8
36.4	4
36.5	7
36.6	7
36.7	4
36.8	6
36.9	6
37.0	6
37.1	7
37.2	8
37.3	8
37.4	6
37.5	5
37.6	7
37.7	5
37.8	6
37.9	5
38.0	5
38.1	7
38.2	6
38.3	7
38.4	2
38.5	5
38.6	8
38.7	4
38.8	7
38.9	6
39.0	5
39.1	5
39.2	5
39.3	5
39.4	7
39.5	6
39.6	5
39.7	5
39.8	6
39.9	6
40.0	6
40.1	7
40.2	7
40.3	5
40.4	6
40.5	5
40.6	5
40.7	6
40.8	9
40.9	23
41.0	25
41.1	15
41.2	10
41.3	8
41.4	10
41.5	10
41.6	10
41.7	7
41.8	8
41.9	8
42.0	9
42.1	8
42.2	8
42.3	8
42.4	5
42.5	6
42.6	6
42.7	6
42.8	6
42.9	5
43.0	5
43.1	8
43.2	6
43.3	6
43.4	8
43.5	5
43.6	4
43.7	5
43.8	5
43.9	5
44.0	6
44.1	5
44.2	7
44.3	5
44.4	6
44.5	3
44.6	4
44.7	5
44.8	6
44.9	6
45.0	5
45.1	6
45.2	5
45.3	3
45.4	4
45.5	5
45.6	5
45.7	4
45.8	4
45.9	5
46.0	6
46.1	6
46.2	6
46.3	6
46.4	5
46.5	8
46.6	5
46.7	5
46.8	6
46.9	7
47.0	8
47.1	20
47.2	67
47.3	78
47.4	72
47.5	53
47.6	32
47.7	29
47.8	22
47.9	23
48.0	22
48.1	25
48.2	23
48.3	22
48.4	22
48.5	19
48.6	14
48.7	13
48.8	8
48.9	7
49.0	5
49.1	7
49.2	8
49.3	6
49.4	6
49.5	5
49.6	4
49.7	6
49.8	5
49.9	5
50.0	6
50.1	6
50.2	4
50.3	4
50.4	5
50.5	4
50.6	5
50.7	5
50.8	4
50.9	6
51.0	6
51.1	4
51.2	5
51.3	7
51.4	6
51.5	7
51.6	4
51.7	5
51.8	4
51.9	4
52.0	6
52.1	4
52.2	4
52.3	5
52.4	4
52.5	5
52.6	5
52.7	5
52.8	4
52.9	5
53.0	6
53.1	6
53.2	6
53.3	3
53.4	7
53.5	7
53.6	6
53.7	7
53.8	5
53.9	4
54.0	4
54.1	5
54.2	6
54.3	5
54.4	6
54.5	6
54.6	5
54.7	3
54.8	4
54.9	5
55.0	4
55.1	5
55.2	6
55.3	5
55.4	3
55.5	5
55.6	4
55.7	5
55.8	7
55.9	6
56.0	4
56.1	6
56.2	8
56.3	3
56.4	6
56.5	5
56.6	4
56.7	6
56.8	4
56.9	4
57.0	6
57.1	6
57.2	5
57.3	5
57.4	5
57.5	5
57.6	5
57.7	5
57.8	6
57.9	5
58.0	5
58.1	6
58.2	7
58.3	4
58.4	6
58.5	6
58.6	5
58.7	4
58.8	3
58.9	5
59.0	7
59.1	5
59.2	4
59.3	3
59.4	5
59.5	5
59.6	6
59.7	4
59.8	5
59.9	4
60.0	6
