X-ray (ID 01) / Crystal angle ?_c	X-ray (ID 01) / Impulse Imp
?_c/°	Imp/# / s

5.0	5088
5.1	4491
5.2	3970
5.3	3539
5.4	3106
5.5	2587
5.6	2181
5.7	1875
5.8	1596
5.9	1361
6.0	1141
6.1	932
6.2	740
6.3	605
6.4	473
6.5	403
6.6	314
6.7	272
6.8	207
6.9	171
7.0	116
7.1	98
7.2	94
7.3	72
7.4	76
7.5	66
7.6	65
7.7	65
7.8	55
7.9	48
8.0	55
8.1	44
8.2	50
8.3	44
8.4	49
8.5	44
8.6	49
8.7	56
8.8	71
8.9	69
9.0	69
9.1	66
9.2	77
9.3	87
9.4	75
9.5	78
9.6	88
9.7	86
9.8	72
9.9	92
10.0	79
10.1	88
10.2	83
10.3	88
10.4	86
10.5	70
10.6	79
10.7	77
10.8	70
10.9	83
11.0	75
11.1	79
11.2	79
11.3	77
11.4	73
11.5	70
11.6	68
11.7	76
11.8	67
11.9	68
12.0	66
12.1	73
12.2	67
12.3	65
12.4	63
12.5	75
12.6	61
12.7	76
12.8	74
12.9	83
13.0	69
13.1	76
13.2	58
13.3	74
13.4	63
13.5	52
13.6	59
13.7	53
13.8	48
13.9	64
14.0	69
14.1	60
14.2	48
14.3	67
14.4	61
14.5	61
14.6	72
14.7	63
14.8	68
14.9	60
15.0	62
15.1	52
15.2	56
15.3	55
15.4	56
15.5	53
15.6	72
15.7	82
15.8	80
15.9	102
16.0	130
16.1	121
16.2	97
16.3	60
16.4	73
16.5	62
16.6	42
16.7	40
16.8	54
16.9	44
17.0	41
17.1	42
17.2	40
17.3	46
17.4	54
17.5	41
17.6	36
17.7	44
17.8	41
17.9	44
18.0	55
18.1	39
18.2	41
18.3	39
18.4	40
18.5	46
18.6	40
18.7	34
18.8	40
18.9	28
19.0	30
19.1	31
19.2	23
19.3	27
19.4	22
19.5	31
19.6	27
19.7	30
19.8	17
19.9	26
20.0	32
20.1	37
20.2	25
20.3	24
20.4	30
20.5	20
20.6	21
20.7	23
20.8	33
20.9	24
21.0	28
21.1	24
21.2	24
21.3	20
21.4	21
21.5	24
21.6	23
21.7	19
21.8	25
21.9	23
22.0	23
22.1	19
22.2	25
22.3	21
22.4	24
22.5	19
22.6	21
22.7	20
22.8	23
22.9	21
23.0	12
23.1	22
23.2	22
23.3	19
23.4	17
23.5	19
23.6	17
23.7	16
23.8	18
23.9	17
24.0	12
24.1	13
24.2	16
24.3	17
24.4	19
24.5	17
24.6	13
24.7	20
24.8	19
24.9	17
25.0	20
25.1	22
25.2	12
25.3	10
25.4	16
25.5	10
25.6	12
25.7	19
25.8	19
25.9	13
26.0	18
26.1	16
26.2	10
26.3	14
26.4	15
26.5	12
26.6	15
26.7	11
26.8	16
26.9	16
27.0	14
27.1	27
27.2	34
27.3	34
27.4	40
27.5	61
27.6	110
27.7	112
27.8	67
27.9	34
28.0	21
28.1	19
28.2	17
28.3	19
28.4	16
28.5	10
28.6	20
28.7	15
28.8	13
28.9	15
29.0	15
29.1	12
29.2	14
29.3	14
29.4	14
29.5	15
29.6	24
29.7	27
29.8	31
29.9	40
30.0	51
30.1	59
30.2	96
30.3	126
30.4	185
30.5	279
30.6	392
30.7	280
30.8	148
30.9	57
31.0	32
31.1	18
31.2	14
31.3	13
31.4	9
31.5	10
31.6	7
31.7	8
31.8	12
31.9	8
32.0	10
32.1	8
32.2	5
32.3	9
32.4	13
32.5	9
32.6	7
32.7	9
32.8	10
32.9	11
33.0	9
33.1	10
33.2	8
33.3	10
33.4	6
33.5	12
33.6	6
33.7	7
33.8	13
33.9	10
34.0	5
34.1	8
34.2	8
34.3	8
34.4	7
34.5	9
34.6	10
34.7	9
34.8	9
34.9	9
35.0	8
35.1	9
35.2	9
35.3	9
35.4	7
35.5	6
35.6	8
35.7	7
35.8	9
35.9	6
36.0	7
36.1	10
36.2	7
36.3	7
36.4	8
36.5	6
36.6	5
36.7	7
36.8	11
36.9	9
37.0	6
37.1	5
37.2	7
37.3	4
37.4	4
37.5	7
37.6	8
37.7	10
37.8	10
37.9	10
38.0	9
38.1	7
38.2	6
38.3	5
38.4	6
38.5	9
38.6	5
38.7	7
38.8	4
38.9	6
39.0	9
39.1	10
39.2	8
39.3	6
39.4	7
39.5	4
39.6	7
39.7	5
39.8	6
39.9	6
40.0	8
40.1	6
40.2	6
40.3	3
40.4	3
40.5	7
40.6	4
40.7	4
40.8	4
40.9	5
41.0	5
41.1	4
41.2	8
41.3	7
41.4	3
41.5	8
41.6	2
41.7	8
41.8	6
41.9	4
42.0	7
42.1	7
42.2	6
42.3	6
42.4	5
42.5	10
42.6	4
42.7	5
42.8	6
42.9	7
43.0	6
43.1	7
43.2	2
43.3	5
43.4	7
43.5	8
43.6	4
43.7	6
43.8	5
43.9	4
44.0	4
44.1	5
44.2	6
44.3	2
44.4	4
44.5	9
44.6	3
44.7	8
44.8	6
44.9	2
45.0	5
45.1	3
45.2	6
45.3	4
45.4	6
45.5	6
45.6	5
45.7	4
45.8	6
45.9	7
46.0	5
46.1	4
46.2	5
46.3	6
46.4	4
46.5	5
46.6	5
46.7	6
46.8	4
46.9	5
47.0	5
47.1	4
47.2	9
47.3	4
47.4	7
47.5	8
47.6	3
47.7	4
47.8	6
47.9	5
48.0	4
48.1	5
48.2	6
48.3	6
48.4	8
48.5	4
48.6	4
48.7	7
48.8	6
48.9	5
49.0	5
49.1	5
49.2	9
49.3	2
49.4	6
49.5	6
49.6	5
49.7	4
49.8	4
49.9	7
50.0	3
50.1	3
50.2	4
50.3	1
50.4	6
50.5	8
50.6	4
50.7	4
50.8	3
50.9	6
51.0	5
51.1	6
51.2	5
51.3	10
51.4	4
51.5	3
51.6	6
51.7	3
51.8	7
51.9	4
52.0	4
52.1	4
52.2	5
52.3	4
52.4	4
52.5	5
52.6	6
52.7	4
52.8	5
52.9	5
53.0	4
53.1	8
53.2	3
53.3	3
53.4	8
53.5	4
53.6	5
53.7	4
53.8	4
53.9	1
54.0	3
54.1	5
54.2	3
54.3	6
54.4	5
54.5	4
54.6	4
54.7	3
54.8	5
54.9	5
55.0	8
55.1	4
55.2	7
55.3	4
55.4	4
55.5	5
55.6	5
55.7	4
55.8	4
55.9	7
56.0	6
56.1	7
56.2	4
56.3	6
56.4	5
56.5	4
56.6	5
56.7	8
56.8	5
56.9	5
57.0	5
57.1	3
57.2	6
57.3	4
57.4	3
57.5	5
57.6	4
57.7	5
57.8	5
57.9	4
58.0	2
58.1	4
58.2	2
58.3	5
58.4	5
58.5	4
58.6	7
58.7	7
58.8	6
58.9	6
59.0	6
59.1	7
59.2	6
59.3	5
59.4	7
59.5	3
59.6	6
59.7	7
59.8	7
59.9	4
60.0	4
